


         Node(  1)          Node(  2)          Node(

 time    Theta               Theta            
     0.1000     0.2030     0.2112
     0.2000     0.2057     0.2129
     0.3000     0.2083     0.2149
     0.4000     0.2108     0.2170
     0.5000     0.2132     0.2191
     0.6000     0.2157     0.2212
     0.7000     0.2181     0.2232
     0.8000     0.2205     0.2252
     0.9000     0.2228     0.2272
     1.0000     0.2250     0.2291
     1.1000     0.2271     0.2309
     1.2000     0.2292     0.2326
     1.3000     0.2311     0.2343
     1.4000     0.2330     0.2360
     1.5000     0.2348     0.2375
     1.6000     0.2365     0.2390
     1.7000     0.2381     0.2405
     1.8000     0.2397     0.2419
     1.9000     0.2411     0.2432
     2.0000     0.2425     0.2445
     2.1000     0.2437     0.2456
     2.2000     0.2449     0.2466
     2.3000     0.2460     0.2477
     2.4000     0.2471     0.2487
     2.5000     0.2481     0.2496
     2.6000     0.2491     0.2505
     2.7000     0.2500     0.2514
     2.8000     0.2509     0.2522
     2.9000     0.2518     0.2530
     3.0000     0.2526     0.2538
     3.1000     0.2535     0.2546
     3.2000     0.2544     0.2554
     3.3000     0.2552     0.2561
     3.4000     0.2559     0.2569
     3.5000     0.2566     0.2575
     3.6000     0.2573     0.2582
     3.7000     0.2580     0.2588
     3.8000     0.2586     0.2594
     3.9000     0.2592     0.2599
     4.0000     0.2598     0.2605
     4.1000     0.2602     0.2609
     4.2000     0.2606     0.2613
     4.3000     0.2610     0.2617
     4.4000     0.2614     0.2621
     4.5000     0.2618     0.2624
     4.6000     0.2621     0.2628
     4.7000     0.2625     0.2631
     4.8000     0.2628     0.2634
     4.9000     0.2632     0.2638
     5.0000     0.2635     0.2640
     5.1000     0.2637     0.2643
     5.2000     0.2640     0.2645
     5.3000     0.2642     0.2648
     5.4000     0.2645     0.2650
     5.5000     0.2647     0.2652
     5.6000     0.2649     0.2654
     5.7000     0.2651     0.2656
     5.8000     0.2653     0.2658
     5.9000     0.2655     0.2660
     6.0000     0.2657     0.2662
     6.1000     0.2659     0.2664
     6.2000     0.2662     0.2666
     6.3000     0.2664     0.2668
     6.4000     0.2666     0.2670
     6.5000     0.2668     0.2672
     6.6000     0.2670     0.2674
     6.7000     0.2671     0.2675
     6.8000     0.2673     0.2677
     6.9000     0.2675     0.2678
     7.0000     0.2676     0.2680
     7.1000     0.2678     0.2682
     7.2000     0.2681     0.2684
     7.3000     0.2682     0.2686
     7.4000     0.2684     0.2687
     7.5000     0.2686     0.2689
     7.6000     0.2687     0.2690
     7.7000     0.2689     0.2692
     7.8000     0.2690     0.2693
     7.9000     0.2691     0.2694
     8.0000     0.2692     0.2695
     8.1000     0.2693     0.2696
     8.2000     0.2693     0.2696
     8.3000     0.2694     0.2697
     8.4000     0.2694     0.2697
     8.5000     0.2695     0.2698
     8.6000     0.2695     0.2698
     8.7000     0.2696     0.2698
     8.8000     0.2696     0.2699
     8.9000     0.2696     0.2699
     9.0000     0.2697     0.2699
     9.1000     0.2698     0.2700
     9.2000     0.2699     0.2701
     9.3000     0.2700     0.2702
     9.4000     0.2701     0.2703
     9.5000     0.2701     0.2704
     9.6000     0.2702     0.2704
     9.7000     0.2702     0.2705
     9.8000     0.2703     0.2705
     9.9000     0.2703     0.2706
    10.0000     0.2704     0.2706
    10.1000     0.2703     0.2706
    10.2000     0.2703     0.2705
    10.3000     0.2703     0.2705
    10.4000     0.2703     0.2705
    10.5000     0.2702     0.2705
    10.6000     0.2702     0.2705
    10.7000     0.2702     0.2705
    10.8000     0.2702     0.2705
    10.9000     0.2702     0.2705
    11.0000     0.2702     0.2705
    11.1000     0.2702     0.2705
    11.2000     0.2702     0.2705
    11.3000     0.2702     0.2705
    11.4000     0.2702     0.2705
    11.5000     0.2702     0.2705
    11.6000     0.2702     0.2705
    11.7000     0.2702     0.2705
    11.8000     0.2702     0.2705
    11.9000     0.2702     0.2705
    12.0000     0.2702     0.2705
    12.1000     0.2701     0.2704
    12.2000     0.2700     0.2703
    12.3000     0.2699     0.2702
    12.4000     0.2698     0.2701
    12.5000     0.2697     0.2700
    12.6000     0.2697     0.2700
    12.7000     0.2696     0.2699
    12.8000     0.2696     0.2699
    12.9000     0.2695     0.2698
    13.0000     0.2695     0.2698
    13.1000     0.2695     0.2698
    13.2000     0.2695     0.2698
    13.3000     0.2695     0.2698
    13.4000     0.2695     0.2698
    13.5000     0.2694     0.2697
    13.6000     0.2694     0.2697
    13.7000     0.2694     0.2697
    13.8000     0.2694     0.2697
    13.9000     0.2694     0.2697
    14.0000     0.2694     0.2697
    14.1000     0.2694     0.2697
    14.2000     0.2694     0.2697
    14.3000     0.2694     0.2697
    14.4000     0.2694     0.2697
    14.5000     0.2694     0.2697
    14.6000     0.2693     0.2696
    14.7000     0.2693     0.2696
    14.8000     0.2693     0.2696
    14.9000     0.2693     0.2696
    15.0000     0.2693     0.2696
    15.1000     0.2694     0.2697
    15.2000     0.2694     0.2697
    15.3000     0.2694     0.2697
    15.4000     0.2694     0.2697
    15.5000     0.2695     0.2697
    15.6000     0.2695     0.2698
    15.7000     0.2695     0.2698
    15.8000     0.2695     0.2698
    15.9000     0.2695     0.2698
    16.0000     0.2695     0.2698
    16.1000     0.2793     0.2785
    16.2000     0.2825     0.2822
    16.3000     0.2835     0.2835
    16.4000     0.2838     0.2839
    16.5000     0.2839     0.2840
    16.6000     0.2840     0.2840
    16.7000     0.2840     0.2840
    16.8000     0.2840     0.2840
    16.9000     0.2840     0.2840
    17.0000     0.2840     0.2840
    17.1000     0.2828     0.2829
    17.2000     0.2825     0.2826
    17.3000     0.2824     0.2825
    17.4000     0.2824     0.2825
    17.5000     0.2824     0.2825
    17.6000     0.2824     0.2825
    17.7000     0.2824     0.2825
    17.8000     0.2824     0.2825
    17.9000     0.2824     0.2825
    18.0000     0.2824     0.2825
    18.1000     0.2787     0.2791
    18.2000     0.2769     0.2773
    18.3000     0.2757     0.2762
    18.4000     0.2749     0.2754
    18.5000     0.2743     0.2747
    18.6000     0.2739     0.2742
    18.7000     0.2735     0.2738
    18.8000     0.2732     0.2735
    18.9000     0.2729     0.2732
    19.0000     0.2726     0.2730
    19.1000     0.2725     0.2728
    19.2000     0.2723     0.2726
    19.3000     0.2722     0.2725
    19.4000     0.2720     0.2724
    19.5000     0.2719     0.2723
    19.6000     0.2718     0.2722
    19.7000     0.2717     0.2721
    19.8000     0.2717     0.2720
    19.9000     0.2716     0.2719
    20.0000     0.2715     0.2719
    20.1000     0.2714     0.2718
    20.2000     0.2713     0.2717
    20.3000     0.2712     0.2716
    20.4000     0.2711     0.2715
    20.5000     0.2711     0.2715
    20.6000     0.2710     0.2714
    20.7000     0.2710     0.2713
    20.8000     0.2709     0.2713
    20.9000     0.2709     0.2713
    21.0000     0.2708     0.2712
    21.1000     0.2707     0.2711
    21.2000     0.2706     0.2710
    21.3000     0.2705     0.2709
    21.4000     0.2705     0.2709
    21.5000     0.2704     0.2708
    21.6000     0.2703     0.2708
    21.7000     0.2703     0.2707
    21.8000     0.2702     0.2707
    21.9000     0.2702     0.2706
    22.0000     0.2702     0.2706
    22.1000     0.2693     0.2699
    22.2000     0.2687     0.2694
    22.3000     0.2681     0.2689
    22.4000     0.2676     0.2684
    22.5000     0.2672     0.2680
    22.6000     0.2668     0.2677
    22.7000     0.2665     0.2674
    22.8000     0.2662     0.2671
    22.9000     0.2659     0.2668
    23.0000     0.2656     0.2665
    23.1000     0.2657     0.2665
    23.2000     0.2657     0.2665
    23.3000     0.2657     0.2665
    23.4000     0.2657     0.2665
    23.5000     0.2657     0.2665
    23.6000     0.2656     0.2665
    23.7000     0.2656     0.2664
    23.8000     0.2656     0.2664
    23.9000     0.2655     0.2664
    24.0000     0.2655     0.2663
    24.1000     0.2658     0.2665
    24.2000     0.2660     0.2667
    24.3000     0.2661     0.2668
    24.4000     0.2663     0.2670
    24.5000     0.2664     0.2671
    24.6000     0.2665     0.2672
    24.7000     0.2666     0.2673
    24.8000     0.2667     0.2673
    24.9000     0.2668     0.2674
    25.0000     0.2668     0.2675
    25.1000     0.2671     0.2677
    25.2000     0.2673     0.2679
    25.3000     0.2675     0.2680
    25.4000     0.2676     0.2682
    25.5000     0.2677     0.2683
    25.6000     0.2679     0.2684
    25.7000     0.2680     0.2685
    25.8000     0.2681     0.2686
    25.9000     0.2682     0.2687
    26.0000     0.2683     0.2688
    26.1000     0.2848     0.2844
    26.2000     0.2865     0.2865
    26.3000     0.2867     0.2867
    26.4000     0.2867     0.2868
    26.5000     0.2867     0.2868
    26.6000     0.2867     0.2868
    26.7000     0.2867     0.2868
    26.8000     0.2867     0.2868
    26.9000     0.2867     0.2868
    27.0000     0.2867     0.2869
    27.1000     0.2797     0.2805
    27.2000     0.2770     0.2778
    27.3000     0.2754     0.2764
    27.4000     0.2745     0.2755
    27.5000     0.2738     0.2748
    27.6000     0.2734     0.2744
    27.7000     0.2731     0.2741
    27.8000     0.2728     0.2739
    27.9000     0.2726     0.2737
    28.0000     0.2725     0.2735
    28.1000     0.2731     0.2740
    28.2000     0.2734     0.2743
    28.3000     0.2737     0.2745
    28.4000     0.2738     0.2747
    28.5000     0.2739     0.2747
    28.6000     0.2740     0.2748
    28.7000     0.2741     0.2748
    28.8000     0.2741     0.2749
    28.9000     0.2741     0.2749
    29.0000     0.2741     0.2749
    29.1000     0.2738     0.2746
    29.2000     0.2736     0.2744
    29.3000     0.2734     0.2743
    29.4000     0.2733     0.2742
    29.5000     0.2733     0.2741
    29.6000     0.2732     0.2741
    29.7000     0.2731     0.2740
    29.8000     0.2731     0.2739
    29.9000     0.2730     0.2739
    30.0000     0.2730     0.2739
    30.1000     0.2731     0.2739
    30.2000     0.2731     0.2739
    30.3000     0.2731     0.2739
    30.4000     0.2731     0.2739
    30.5000     0.2731     0.2739
    30.6000     0.2731     0.2739
    30.7000     0.2731     0.2739
    30.8000     0.2731     0.2739
    30.9000     0.2731     0.2739
    31.0000     0.2731     0.2739
    31.1000     0.2730     0.2738
    31.2000     0.2729     0.2737
    31.3000     0.2728     0.2736
    31.4000     0.2728     0.2736
    31.5000     0.2727     0.2736
    31.6000     0.2727     0.2735
    31.7000     0.2727     0.2735
    31.8000     0.2726     0.2735
    31.9000     0.2726     0.2734
    32.0000     0.2726     0.2734
    32.1000     0.2724     0.2733
    32.2000     0.2723     0.2732
    32.3000     0.2722     0.2731
    32.4000     0.2722     0.2730
    32.5000     0.2721     0.2729
    32.6000     0.2720     0.2729
    32.7000     0.2720     0.2728
    32.8000     0.2720     0.2728
    32.9000     0.2719     0.2728
    33.0000     0.2719     0.2727
    33.1000     0.2717     0.2725
    33.2000     0.2715     0.2724
    33.3000     0.2714     0.2723
    33.4000     0.2713     0.2722
    33.5000     0.2712     0.2721
    33.6000     0.2711     0.2720
    33.7000     0.2710     0.2719
    33.8000     0.2710     0.2719
    33.9000     0.2709     0.2718
    34.0000     0.2708     0.2718
    34.1000     0.2710     0.2718
    34.2000     0.2711     0.2719
    34.3000     0.2711     0.2719
    34.4000     0.2711     0.2720
    34.5000     0.2712     0.2720
    34.6000     0.2712     0.2720
    34.7000     0.2712     0.2720
    34.8000     0.2712     0.2720
    34.9000     0.2712     0.2720
    35.0000     0.2712     0.2720
    35.1000     0.2711     0.2719
    35.2000     0.2711     0.2719
    35.3000     0.2711     0.2719
    35.4000     0.2711     0.2719
    35.5000     0.2710     0.2718
    35.6000     0.2710     0.2718
    35.7000     0.2710     0.2718
    35.8000     0.2710     0.2718
    35.9000     0.2709     0.2717
    36.0000     0.2709     0.2717
    36.1000     0.2820     0.2818
    36.2000     0.2841     0.2842
    36.3000     0.2844     0.2846
    36.4000     0.2845     0.2847
    36.5000     0.2845     0.2848
    36.6000     0.2846     0.2848
    36.7000     0.2846     0.2849
    36.8000     0.2847     0.2850
    36.9000     0.2847     0.2852
    37.0000     0.2848     0.2854
    37.1000     0.2799     0.2810
    37.2000     0.2781     0.2793
    37.3000     0.2771     0.2785
    37.4000     0.2767     0.2780
    37.5000     0.2764     0.2777
    37.6000     0.2762     0.2776
    37.7000     0.2761     0.2775
    37.8000     0.2761     0.2774
    37.9000     0.2760     0.2774
    38.0000     0.2760     0.2773
    38.1000     0.2757     0.2771
    38.2000     0.2756     0.2770
    38.3000     0.2755     0.2769
    38.4000     0.2755     0.2768
    38.5000     0.2754     0.2768
    38.6000     0.2754     0.2767
    38.7000     0.2753     0.2766
    38.8000     0.2753     0.2766
    38.9000     0.2752     0.2766
    39.0000     0.2752     0.2765
    39.1000     0.2752     0.2765
    39.2000     0.2751     0.2764
    39.3000     0.2751     0.2764
    39.4000     0.2750     0.2763
    39.5000     0.2750     0.2763
    39.6000     0.2750     0.2762
    39.7000     0.2749     0.2762
    39.8000     0.2749     0.2761
    39.9000     0.2749     0.2761
    40.0000     0.2748     0.2760
    40.1000     0.2748     0.2760
    40.2000     0.2747     0.2760
    40.3000     0.2747     0.2759
    40.4000     0.2747     0.2759
    40.5000     0.2746     0.2758
    40.6000     0.2746     0.2758
    40.7000     0.2746     0.2757
    40.8000     0.2745     0.2757
    40.9000     0.2745     0.2756
    41.0000     0.2744     0.2756
    41.1000     0.2746     0.2757
    41.2000     0.2747     0.2757
    41.3000     0.2747     0.2758
    41.4000     0.2747     0.2758
    41.5000     0.2747     0.2758
    41.6000     0.2747     0.2757
    41.7000     0.2747     0.2757
    41.8000     0.2746     0.2757
    41.9000     0.2746     0.2756
    42.0000     0.2746     0.2756
    42.1000     0.2742     0.2753
    42.2000     0.2739     0.2751
    42.3000     0.2738     0.2749
    42.4000     0.2736     0.2748
    42.5000     0.2736     0.2747
    42.6000     0.2735     0.2746
    42.7000     0.2734     0.2745
    42.8000     0.2734     0.2745
    42.9000     0.2733     0.2744
    43.0000     0.2733     0.2744
    43.1000     0.2734     0.2745
    43.2000     0.2735     0.2745
    43.3000     0.2735     0.2746
    43.4000     0.2735     0.2746
    43.5000     0.2735     0.2746
    43.6000     0.2735     0.2745
    43.7000     0.2735     0.2745
    43.8000     0.2735     0.2745
    43.9000     0.2735     0.2745
    44.0000     0.2734     0.2744
    44.1000     0.2734     0.2744
    44.2000     0.2734     0.2744
    44.3000     0.2733     0.2743
    44.4000     0.2733     0.2743
    44.5000     0.2733     0.2743
    44.6000     0.2733     0.2742
    44.7000     0.2732     0.2742
    44.8000     0.2732     0.2742
    44.9000     0.2732     0.2741
    45.0000     0.2731     0.2741
    45.1000     0.2726     0.2736
    45.2000     0.2722     0.2733
    45.3000     0.2719     0.2730
    45.4000     0.2716     0.2728
    45.5000     0.2715     0.2726
    45.6000     0.2713     0.2725
    45.7000     0.2712     0.2723
    45.8000     0.2711     0.2722
    45.9000     0.2710     0.2721
    46.0000     0.2709     0.2720
    46.1000     0.2710     0.2721
    46.2000     0.2710     0.2721
    46.3000     0.2710     0.2721
    46.4000     0.2710     0.2721
    46.5000     0.2710     0.2721
    46.6000     0.2710     0.2721
    46.7000     0.2710     0.2720
    46.8000     0.2709     0.2720
    46.9000     0.2709     0.2720
    47.0000     0.2709     0.2719
    47.1000     0.2701     0.2712
    47.2000     0.2695     0.2707
    47.3000     0.2690     0.2702
    47.4000     0.2686     0.2698
    47.5000     0.2682     0.2695
    47.6000     0.2678     0.2692
    47.7000     0.2675     0.2689
    47.8000     0.2673     0.2687
    47.9000     0.2670     0.2685
    48.0000     0.2668     0.2682
    48.1000     0.2675     0.2688
    48.2000     0.2681     0.2693
    48.3000     0.2685     0.2697
    48.4000     0.2689     0.2700
    48.5000     0.2692     0.2703
    48.6000     0.2694     0.2705
    48.7000     0.2696     0.2706
    48.8000     0.2698     0.2708
    48.9000     0.2699     0.2709
    49.0000     0.2700     0.2709
    49.1000     0.2698     0.2708
    49.2000     0.2698     0.2708
    49.3000     0.2697     0.2707
    49.4000     0.2696     0.2706
    49.5000     0.2695     0.2706
    49.6000     0.2695     0.2705
    49.7000     0.2694     0.2704
    49.8000     0.2693     0.2704
    49.9000     0.2693     0.2703
    50.0000     0.2692     0.2702
    50.1000     0.2686     0.2697
    50.2000     0.2680     0.2692
    50.3000     0.2675     0.2687
    50.4000     0.2671     0.2683
    50.5000     0.2667     0.2680
    50.6000     0.2664     0.2677
    50.7000     0.2661     0.2674
    50.8000     0.2658     0.2671
    50.9000     0.2655     0.2669
    51.0000     0.2653     0.2667
    51.1000     0.2648     0.2662
    51.2000     0.2643     0.2657
    51.3000     0.2638     0.2653
    51.4000     0.2634     0.2649
    51.5000     0.2630     0.2645
    51.6000     0.2626     0.2642
    51.7000     0.2623     0.2639
    51.8000     0.2619     0.2635
    51.9000     0.2616     0.2633
    52.0000     0.2613     0.2630
    52.1000     0.2615     0.2633
    52.2000     0.2618     0.2635
    52.3000     0.2620     0.2637
    52.4000     0.2622     0.2639
    52.5000     0.2624     0.2641
    52.6000     0.2626     0.2642
    52.7000     0.2627     0.2643
    52.8000     0.2628     0.2644
    52.9000     0.2629     0.2645
    53.0000     0.2630     0.2645
    53.1000     0.2627     0.2642
    53.2000     0.2624     0.2639
    53.3000     0.2621     0.2637
    53.4000     0.2619     0.2634
    53.5000     0.2616     0.2632
    53.6000     0.2614     0.2630
    53.7000     0.2611     0.2627
    53.8000     0.2609     0.2625
    53.9000     0.2607     0.2623
    54.0000     0.2605     0.2622
    54.1000     0.2602     0.2619
    54.2000     0.2600     0.2616
    54.3000     0.2597     0.2614
    54.4000     0.2594     0.2611
    54.5000     0.2592     0.2609
    54.6000     0.2589     0.2606
    54.7000     0.2587     0.2604
    54.8000     0.2585     0.2602
    54.9000     0.2582     0.2600
    55.0000     0.2580     0.2598
    55.1000     0.2582     0.2601
    55.2000     0.2584     0.2603
    55.3000     0.2586     0.2604
    55.4000     0.2588     0.2606
    55.5000     0.2590     0.2607
    55.6000     0.2591     0.2609
    55.7000     0.2593     0.2610
    55.8000     0.2594     0.2611
    55.9000     0.2595     0.2611
    56.0000     0.2595     0.2612
    56.1000     0.2598     0.2614
    56.2000     0.2600     0.2616
    56.3000     0.2602     0.2617
    56.4000     0.2603     0.2618
    56.5000     0.2604     0.2619
    56.6000     0.2605     0.2620
    56.7000     0.2606     0.2621
    56.8000     0.2607     0.2622
