


         Node(  1)          Node(  2)          Node(

 time    Theta               Theta            
     0.1000     0.2499     0.2556
     0.2000     0.2499     0.2609
     0.3000     0.2499     0.2662
     0.4000     0.2499     0.2713
     0.5000     0.2499     0.2763
     0.6000     0.2499     0.2812
     0.7000     0.2500     0.2860
     0.8000     0.2501     0.2907
     0.9000     0.2502     0.2952
     1.0000     0.2503     0.2996
     1.1000     0.2505     0.3038
     1.2000     0.2507     0.3078
     1.3000     0.2509     0.3115
     1.4000     0.2512     0.3149
     1.5000     0.2515     0.3179
     1.6000     0.2519     0.3205
     1.7000     0.2522     0.3227
     1.8000     0.2526     0.3246
     1.9000     0.2530     0.3262
     2.0000     0.2535     0.3275
     2.1000     0.2539     0.3286
     2.2000     0.2543     0.3294
     2.3000     0.2548     0.3301
     2.4000     0.2552     0.3306
     2.5000     0.2557     0.3309
     2.6000     0.2562     0.3312
     2.7000     0.2566     0.3314
     2.8000     0.2571     0.3315
     2.9000     0.2576     0.3315
     3.0000     0.2581     0.3315
     3.1000     0.2586     0.3315
     3.2000     0.2591     0.3314
     3.3000     0.2596     0.3313
     3.4000     0.2601     0.3312
     3.5000     0.2606     0.3311
     3.6000     0.2610     0.3310
     3.7000     0.2615     0.3308
     3.8000     0.2620     0.3306
     3.9000     0.2625     0.3305
     4.0000     0.2630     0.3303
     4.1000     0.2634     0.3301
     4.2000     0.2639     0.3300
     4.3000     0.2643     0.3298
     4.4000     0.2648     0.3296
     4.5000     0.2652     0.3294
     4.6000     0.2656     0.3292
     4.7000     0.2661     0.3290
     4.8000     0.2665     0.3289
     4.9000     0.2669     0.3287
     5.0000     0.2674     0.3285
     5.1000     0.2678     0.3283
     5.2000     0.2682     0.3281
     5.3000     0.2686     0.3280
     5.4000     0.2690     0.3278
     5.5000     0.2694     0.3276
     5.6000     0.2698     0.3274
     5.7000     0.2702     0.3273
     5.8000     0.2705     0.3271
     5.9000     0.2709     0.3269
     6.0000     0.2713     0.3268
     6.1000     0.2717     0.3266
     6.2000     0.2721     0.3264
     6.3000     0.2725     0.3263
     6.4000     0.2729     0.3261
     6.5000     0.2733     0.3260
     6.6000     0.2737     0.3258
     6.7000     0.2741     0.3256
     6.8000     0.2744     0.3255
     6.9000     0.2748     0.3253
     7.0000     0.2752     0.3252
     7.1000     0.2756     0.3250
     7.2000     0.2760     0.3249
     7.3000     0.2763     0.3247
     7.4000     0.2767     0.3246
     7.5000     0.2771     0.3244
     7.6000     0.2775     0.3243
     7.7000     0.2779     0.3242
     7.8000     0.2782     0.3240
     7.9000     0.2786     0.3239
     8.0000     0.2790     0.3238
     8.1000     0.2793     0.3236
     8.2000     0.2796     0.3235
     8.3000     0.2800     0.3233
     8.4000     0.2803     0.3232
     8.5000     0.2806     0.3231
     8.6000     0.2810     0.3230
     8.7000     0.2813     0.3228
     8.8000     0.2816     0.3227
     8.9000     0.2819     0.3226
     9.0000     0.2822     0.3225
     9.1000     0.2826     0.3223
     9.2000     0.2829     0.3222
     9.3000     0.2832     0.3221
     9.4000     0.2835     0.3220
     9.5000     0.2839     0.3219
     9.6000     0.2842     0.3218
     9.7000     0.2845     0.3216
     9.8000     0.2848     0.3215
     9.9000     0.2851     0.3214
    10.0000     0.2854     0.3213
    10.1000     0.2857     0.3212
    10.2000     0.2860     0.3211
    10.3000     0.2862     0.3210
    10.4000     0.2865     0.3209
    10.5000     0.2868     0.3208
    10.6000     0.2870     0.3207
    10.7000     0.2873     0.3206
    10.8000     0.2876     0.3205
    10.9000     0.2878     0.3204
    11.0000     0.2881     0.3203
    11.1000     0.2883     0.3202
    11.2000     0.2886     0.3201
    11.3000     0.2888     0.3200
    11.4000     0.2891     0.3199
    11.5000     0.2893     0.3198
    11.6000     0.2895     0.3197
    11.7000     0.2898     0.3196
    11.8000     0.2900     0.3195
    11.9000     0.2902     0.3194
    12.0000     0.2905     0.3194
    12.1000     0.2906     0.3193
    12.2000     0.2908     0.3192
    12.3000     0.2910     0.3191
    12.4000     0.2912     0.3190
    12.5000     0.2913     0.3189
    12.6000     0.2915     0.3188
    12.7000     0.2917     0.3188
    12.8000     0.2918     0.3187
    12.9000     0.2920     0.3186
    13.0000     0.2922     0.3185
    13.1000     0.2923     0.3184
    13.2000     0.2925     0.3184
    13.3000     0.2927     0.3183
    13.4000     0.2928     0.3182
    13.5000     0.2930     0.3181
    13.6000     0.2932     0.3180
    13.7000     0.2933     0.3180
    13.8000     0.2935     0.3179
    13.9000     0.2936     0.3178
    14.0000     0.2938     0.3177
    14.1000     0.2940     0.3177
    14.2000     0.2941     0.3176
    14.3000     0.2943     0.3175
    14.4000     0.2944     0.3175
    14.5000     0.2945     0.3174
    14.6000     0.2947     0.3173
    14.7000     0.2948     0.3173
    14.8000     0.2950     0.3172
    14.9000     0.2951     0.3171
    15.0000     0.2952     0.3171
    15.1000     0.2954     0.3170
    15.2000     0.2955     0.3169
    15.3000     0.2956     0.3169
    15.4000     0.2958     0.3168
    15.5000     0.2959     0.3167
    15.6000     0.2960     0.3167
    15.7000     0.2962     0.3166
    15.8000     0.2963     0.3165
    15.9000     0.2964     0.3165
    16.0000     0.2965     0.3164
    16.1000     0.3001     0.3164
    16.2000     0.3036     0.3164
    16.3000     0.3070     0.3166
    16.4000     0.3102     0.3168
    16.5000     0.3132     0.3173
    16.6000     0.3159     0.3180
    16.7000     0.3184     0.3188
    16.8000     0.3207     0.3198
    16.9000     0.3227     0.3209
    17.0000     0.3244     0.3221
    17.1000     0.3249     0.3233
    17.2000     0.3253     0.3244
    17.3000     0.3257     0.3254
    17.4000     0.3260     0.3264
    17.5000     0.3263     0.3273
    17.6000     0.3266     0.3281
    17.7000     0.3269     0.3289
    17.8000     0.3271     0.3297
    17.9000     0.3273     0.3304
    18.0000     0.3276     0.3310
    18.1000     0.3258     0.3314
    18.2000     0.3243     0.3315
    18.3000     0.3230     0.3315
    18.4000     0.3218     0.3314
    18.5000     0.3208     0.3312
    18.6000     0.3199     0.3310
    18.7000     0.3191     0.3308
    18.8000     0.3183     0.3306
    18.9000     0.3177     0.3303
    19.0000     0.3170     0.3301
    19.1000     0.3165     0.3299
    19.2000     0.3160     0.3297
    19.3000     0.3155     0.3295
    19.4000     0.3151     0.3293
    19.5000     0.3147     0.3291
    19.6000     0.3143     0.3290
    19.7000     0.3139     0.3288
    19.8000     0.3136     0.3287
    19.9000     0.3133     0.3285
    20.0000     0.3130     0.3284
    20.1000     0.3128     0.3283
    20.2000     0.3125     0.3282
    20.3000     0.3122     0.3281
    20.4000     0.3120     0.3279
    20.5000     0.3118     0.3278
    20.6000     0.3116     0.3277
    20.7000     0.3114     0.3276
    20.8000     0.3112     0.3276
    20.9000     0.3110     0.3275
    21.0000     0.3109     0.3274
    21.1000     0.3107     0.3273
    21.2000     0.3105     0.3272
    21.3000     0.3103     0.3271
    21.4000     0.3102     0.3270
    21.5000     0.3100     0.3270
    21.6000     0.3099     0.3269
    21.7000     0.3097     0.3268
    21.8000     0.3096     0.3267
    21.9000     0.3095     0.3267
    22.0000     0.3094     0.3266
    22.1000     0.3090     0.3265
    22.2000     0.3087     0.3264
    22.3000     0.3084     0.3263
    22.4000     0.3081     0.3262
    22.5000     0.3078     0.3261
    22.6000     0.3075     0.3260
    22.7000     0.3073     0.3259
    22.8000     0.3070     0.3258
    22.9000     0.3068     0.3257
    23.0000     0.3066     0.3255
    23.1000     0.3064     0.3254
    23.2000     0.3063     0.3253
    23.3000     0.3062     0.3252
    23.4000     0.3061     0.3251
    23.5000     0.3060     0.3250
    23.6000     0.3059     0.3249
    23.7000     0.3058     0.3248
    23.8000     0.3056     0.3247
    23.9000     0.3055     0.3246
    24.0000     0.3054     0.3245
    24.1000     0.3054     0.3244
    24.2000     0.3054     0.3243
    24.3000     0.3054     0.3242
    24.4000     0.3054     0.3241
    24.5000     0.3054     0.3241
    24.6000     0.3053     0.3240
    24.7000     0.3053     0.3239
    24.8000     0.3053     0.3238
    24.9000     0.3053     0.3237
    25.0000     0.3053     0.3237
    25.1000     0.3053     0.3236
    25.2000     0.3053     0.3235
    25.3000     0.3053     0.3234
    25.4000     0.3053     0.3234
    25.5000     0.3054     0.3233
    25.6000     0.3054     0.3232
    25.7000     0.3054     0.3232
    25.8000     0.3054     0.3231
    25.9000     0.3054     0.3230
    26.0000     0.3054     0.3230
    26.1000     0.3137     0.3234
    26.2000     0.3212     0.3244
    26.3000     0.3278     0.3263
    26.4000     0.3333     0.3288
    26.5000     0.3379     0.3319
    26.6000     0.3415     0.3354
    26.7000     0.3445     0.3390
    26.8000     0.3469     0.3426
    26.9000     0.3488     0.3460
    27.0000     0.3503     0.3493
    27.1000     0.3446     0.3505
    27.2000     0.3402     0.3507
    27.3000     0.3367     0.3504
    27.4000     0.3338     0.3498
    27.5000     0.3314     0.3492
    27.6000     0.3293     0.3485
    27.7000     0.3275     0.3479
    27.8000     0.3260     0.3473
    27.9000     0.3246     0.3468
    28.0000     0.3234     0.3464
    28.1000     0.3226     0.3459
    28.2000     0.3218     0.3456
    28.3000     0.3211     0.3453
    28.4000     0.3205     0.3450
    28.5000     0.3199     0.3448
    28.6000     0.3194     0.3445
    28.7000     0.3190     0.3443
    28.8000     0.3185     0.3442
    28.9000     0.3182     0.3440
    29.0000     0.3178     0.3438
    29.1000     0.3174     0.3437
    29.2000     0.3170     0.3435
    29.3000     0.3166     0.3434
    29.4000     0.3163     0.3432
    29.5000     0.3160     0.3431
    29.6000     0.3157     0.3429
    29.7000     0.3154     0.3428
    29.8000     0.3152     0.3426
    29.9000     0.3150     0.3425
    30.0000     0.3147     0.3423
    30.1000     0.3146     0.3422
    30.2000     0.3144     0.3420
    30.3000     0.3143     0.3419
    30.4000     0.3141     0.3417
    30.5000     0.3140     0.3416
    30.6000     0.3138     0.3414
    30.7000     0.3137     0.3413
    30.8000     0.3136     0.3412
    30.9000     0.3135     0.3410
    31.0000     0.3134     0.3409
    31.1000     0.3133     0.3408
    31.2000     0.3131     0.3406
    31.3000     0.3130     0.3405
    31.4000     0.3129     0.3404
    31.5000     0.3128     0.3402
    31.6000     0.3127     0.3401
    31.7000     0.3127     0.3400
    31.8000     0.3126     0.3398
    31.9000     0.3125     0.3397
    32.0000     0.3124     0.3396
    32.1000     0.3123     0.3394
    32.2000     0.3121     0.3393
    32.3000     0.3120     0.3392
    32.4000     0.3119     0.3390
    32.5000     0.3117     0.3389
    32.6000     0.3116     0.3387
    32.7000     0.3115     0.3386
    32.8000     0.3114     0.3385
    32.9000     0.3113     0.3383
    33.0000     0.3112     0.3382
    33.1000     0.3110     0.3380
    33.2000     0.3109     0.3379
    33.3000     0.3108     0.3377
    33.4000     0.3106     0.3376
    33.5000     0.3105     0.3374
    33.6000     0.3104     0.3373
    33.7000     0.3102     0.3371
    33.8000     0.3101     0.3370
    33.9000     0.3100     0.3368
    34.0000     0.3099     0.3367
    34.1000     0.3099     0.3365
    34.2000     0.3098     0.3364
    34.3000     0.3098     0.3362
    34.4000     0.3098     0.3361
    34.5000     0.3097     0.3360
    34.6000     0.3097     0.3358
    34.7000     0.3097     0.3357
    34.8000     0.3096     0.3356
    34.9000     0.3096     0.3354
    35.0000     0.3095     0.3353
    35.1000     0.3095     0.3352
    35.2000     0.3094     0.3351
    35.3000     0.3093     0.3349
    35.4000     0.3092     0.3348
    35.5000     0.3091     0.3347
    35.6000     0.3091     0.3345
    35.7000     0.3090     0.3344
    35.8000     0.3089     0.3343
    35.9000     0.3089     0.3341
    36.0000     0.3088     0.3340
    36.1000     0.3134     0.3342
    36.2000     0.3177     0.3346
    36.3000     0.3215     0.3354
    36.4000     0.3248     0.3365
    36.5000     0.3277     0.3378
    36.6000     0.3302     0.3393
    36.7000     0.3324     0.3409
    36.8000     0.3342     0.3426
    36.9000     0.3357     0.3443
    37.0000     0.3370     0.3460
    37.1000     0.3341     0.3469
    37.2000     0.3317     0.3473
    37.3000     0.3297     0.3474
    37.4000     0.3280     0.3473
    37.5000     0.3265     0.3472
    37.6000     0.3253     0.3470
    37.7000     0.3242     0.3468
    37.8000     0.3232     0.3466
    37.9000     0.3223     0.3463
    38.0000     0.3215     0.3461
    38.1000     0.3207     0.3459
    38.2000     0.3200     0.3457
    38.3000     0.3194     0.3455
    38.4000     0.3188     0.3453
    38.5000     0.3183     0.3451
    38.6000     0.3178     0.3449
    38.7000     0.3173     0.3447
    38.8000     0.3169     0.3445
    38.9000     0.3165     0.3443
    39.0000     0.3162     0.3441
    39.1000     0.3159     0.3440
    39.2000     0.3156     0.3438
    39.3000     0.3154     0.3436
    39.4000     0.3152     0.3435
    39.5000     0.3149     0.3433
    39.6000     0.3147     0.3431
    39.7000     0.3145     0.3430
    39.8000     0.3144     0.3428
    39.9000     0.3142     0.3427
    40.0000     0.3140     0.3425
    40.1000     0.3138     0.3424
    40.2000     0.3137     0.3422
    40.3000     0.3135     0.3420
    40.4000     0.3134     0.3419
    40.5000     0.3132     0.3417
    40.6000     0.3131     0.3416
    40.7000     0.3130     0.3414
    40.8000     0.3129     0.3413
    40.9000     0.3127     0.3411
    41.0000     0.3126     0.3410
    41.1000     0.3125     0.3408
    41.2000     0.3125     0.3407
    41.3000     0.3124     0.3405
    41.4000     0.3123     0.3404
    41.5000     0.3123     0.3402
    41.6000     0.3122     0.3401
    41.7000     0.3121     0.3399
    41.8000     0.3121     0.3398
    41.9000     0.3120     0.3397
    42.0000     0.3119     0.3395
    42.1000     0.3118     0.3394
    42.2000     0.3116     0.3392
    42.3000     0.3115     0.3391
    42.4000     0.3113     0.3389
    42.5000     0.3112     0.3388
    42.6000     0.3110     0.3386
    42.7000     0.3109     0.3385
    42.8000     0.3108     0.3383
    42.9000     0.3107     0.3382
    43.0000     0.3105     0.3380
    43.1000     0.3105     0.3379
    43.2000     0.3104     0.3377
    43.3000     0.3103     0.3376
    43.4000     0.3103     0.3374
    43.5000     0.3102     0.3373
    43.6000     0.3102     0.3371
    43.7000     0.3101     0.3370
    43.8000     0.3100     0.3368
    43.9000     0.3100     0.3367
    44.0000     0.3099     0.3366
    44.1000     0.3099     0.3364
    44.2000     0.3099     0.3363
    44.3000     0.3099     0.3361
    44.4000     0.3098     0.3360
    44.5000     0.3098     0.3359
    44.6000     0.3098     0.3358
    44.7000     0.3098     0.3356
    44.8000     0.3097     0.3355
    44.9000     0.3097     0.3354
    45.0000     0.3097     0.3353
    45.1000     0.3094     0.3351
    45.2000     0.3092     0.3350
    45.3000     0.3090     0.3349
    45.4000     0.3088     0.3347
    45.5000     0.3085     0.3346
    45.6000     0.3083     0.3344
    45.7000     0.3082     0.3343
    45.8000     0.3080     0.3341
    45.9000     0.3078     0.3339
    46.0000     0.3076     0.3338
    46.1000     0.3075     0.3336
    46.2000     0.3073     0.3335
    46.3000     0.3072     0.3333
    46.4000     0.3071     0.3331
    46.5000     0.3070     0.3330
    46.6000     0.3068     0.3328
    46.7000     0.3067     0.3327
    46.8000     0.3066     0.3325
    46.9000     0.3065     0.3324
    47.0000     0.3064     0.3322
    47.1000     0.3061     0.3321
    47.2000     0.3058     0.3319
    47.3000     0.3055     0.3318
    47.4000     0.3053     0.3316
    47.5000     0.3050     0.3314
    47.6000     0.3048     0.3313
    47.7000     0.3045     0.3311
    47.8000     0.3043     0.3309
    47.9000     0.3040     0.3308
    48.0000     0.3038     0.3306
    48.1000     0.3038     0.3304
    48.2000     0.3038     0.3303
    48.3000     0.3038     0.3301
    48.4000     0.3039     0.3299
    48.5000     0.3039     0.3298
    48.6000     0.3039     0.3297
    48.7000     0.3039     0.3295
    48.8000     0.3039     0.3294
    48.9000     0.3039     0.3292
    49.0000     0.3039     0.3291
    49.1000     0.3038     0.3290
    49.2000     0.3037     0.3288
    49.3000     0.3036     0.3287
    49.4000     0.3035     0.3286
    49.5000     0.3035     0.3284
    49.6000     0.3034     0.3283
    49.7000     0.3033     0.3282
    49.8000     0.3032     0.3281
    49.9000     0.3031     0.3279
    50.0000     0.3030     0.3278
    50.1000     0.3028     0.3277
    50.2000     0.3025     0.3275
    50.3000     0.3023     0.3274
    50.4000     0.3021     0.3272
    50.5000     0.3018     0.3271
    50.6000     0.3016     0.3270
    50.7000     0.3013     0.3268
    50.8000     0.3011     0.3267
    50.9000     0.3009     0.3266
    51.0000     0.3007     0.3264
    51.1000     0.3003     0.3263
    51.2000     0.2999     0.3261
    51.3000     0.2995     0.3260
    51.4000     0.2991     0.3259
    51.5000     0.2988     0.3257
    51.6000     0.2984     0.3256
    51.7000     0.2980     0.3254
    51.8000     0.2976     0.3253
    51.9000     0.2973     0.3252
    52.0000     0.2969     0.3250
    52.1000     0.2967     0.3249
    52.2000     0.2966     0.3248
    52.3000     0.2964     0.3246
    52.4000     0.2962     0.3245
    52.5000     0.2961     0.3244
    52.6000     0.2959     0.3242
    52.7000     0.2957     0.3241
    52.8000     0.2956     0.3240
    52.9000     0.2954     0.3239
    53.0000     0.2952     0.3237
    53.1000     0.2950     0.3236
    53.2000     0.2947     0.3235
    53.3000     0.2945     0.3234
    53.4000     0.2942     0.3233
    53.5000     0.2940     0.3231
    53.6000     0.2937     0.3230
    53.7000     0.2934     0.3229
    53.8000     0.2932     0.3228
    53.9000     0.2929     0.3226
    54.0000     0.2927     0.3225
    54.1000     0.2924     0.3224
    54.2000     0.2920     0.3223
    54.3000     0.2917     0.3222
    54.4000     0.2914     0.3220
    54.5000     0.2911     0.3219
    54.6000     0.2907     0.3218
    54.7000     0.2904     0.3217
    54.8000     0.2901     0.3216
    54.9000     0.2898     0.3214
    55.0000     0.2895     0.3213
    55.1000     0.2894     0.3212
    55.2000     0.2892     0.3211
    55.3000     0.2891     0.3210
    55.4000     0.2890     0.3209
    55.5000     0.2889     0.3207
    55.6000     0.2888     0.3206
    55.7000     0.2887     0.3205
    55.8000     0.2885     0.3204
    55.9000     0.2884     0.3203
    56.0000     0.2883     0.3202
    56.1000     0.2882     0.3201
    56.2000     0.2881     0.3200
    56.3000     0.2879     0.3199
    56.4000     0.2878     0.3197
    56.5000     0.2877     0.3196
    56.6000     0.2876     0.3195
    56.7000     0.2875     0.3194
    56.8000     0.2874     0.3193
